Angle,PSD
19.999,196
20.0132,169
20.0274,156
20.0416,147
20.0557,162
20.0699,164
20.0841,174
20.0983,173
20.1124,175
20.1266,178
20.1408,184
20.155,178
20.1691,165
20.1833,174
20.1975,197
20.2117,153
20.2258,161
20.24,178
20.2542,181
20.2684,177
20.2825,160
20.2967,156
20.3109,174
20.3251,189
20.3392,161
20.3534,164
20.3676,180
20.3818,178
20.3959,201
20.4101,158
20.4243,178
20.4385,156
20.4526,176
20.4668,147
20.481,165
20.4952,176
20.5093,197
20.5235,159
20.5377,138
20.5519,173
20.566,159
20.5802,152
20.5944,156
20.6086,185
20.6227,184
20.6369,169
20.6511,152
20.6653,140
20.6794,155
20.6936,183
20.7078,159
20.722,151
20.7361,152
20.7503,165
20.7645,143
20.7787,176
20.7928,163
20.807,160
20.8212,140
20.8354,146
20.8495,156
20.8637,164
20.8779,184
20.8921,159
20.9062,179
20.9204,157
20.9346,141
20.9488,168
20.9629,155
20.9771,157
20.9913,160
21.0055,166
21.0196,139
21.0338,187
21.048,148
21.0622,147
21.0763,183
21.0905,140
21.1047,173
21.1189,162
21.133,163
21.1472,165
21.1614,171
21.1756,151
21.1897,170
21.2039,149
21.2181,163
21.2323,155
21.2464,141
21.2606,181
21.2748,167
21.289,176
21.3031,151
21.3173,201
21.3315,160
21.3457,160
21.3598,183
21.374,157
21.3882,172
21.4024,156
21.4165,170
21.4307,156
21.4449,161
21.4591,167
21.4732,165
21.4874,192
21.5016,173
21.5158,180
21.5299,197
21.5441,177
21.5583,178
21.5725,203
21.5866,188
21.6008,179
21.615,191
21.6292,201
21.6433,220
21.6575,223
21.6717,209
21.6859,219
21.7,228
21.7142,212
21.7284,239
21.7426,227
21.7567,227
21.7709,180
21.7851,197
21.7993,222
21.8134,183
21.8276,211
21.8418,194
21.856,196
21.8701,160
21.8843,155
21.8985,186
21.9127,181
21.9268,174
21.941,172
21.9552,156
21.9694,171
21.9835,172
21.9977,165
22.0119,158
22.0261,173
22.0402,157
22.0544,158
22.0686,191
22.0828,157
22.0969,190
22.1111,177
22.1253,157
22.1395,128
22.1536,168
22.1678,193
22.182,165
22.1962,185
22.2103,176
22.2245,177
22.2387,173
22.2529,159
22.267,186
22.2812,148
22.2954,173
22.3096,161
22.3237,155
22.3379,172
22.3521,133
22.3663,162
22.3804,154
22.3946,168
22.4088,148
22.423,192
22.4371,180
22.4513,162
22.4655,166
22.4797,170
22.4938,184
22.508,170
22.5222,126
22.5364,151
22.5505,169
22.5647,155
22.5789,171
22.5931,167
22.6072,179
22.6214,169
22.6356,165
22.6498,175
22.6639,181
22.6781,175
22.6923,180
22.7065,195
22.7206,207
22.7348,190
22.749,191
22.7632,213
22.7773,212
22.7915,185
22.8057,229
22.8199,240
22.834,206
22.8482,225
22.8624,205
22.8766,189
22.8907,201
22.9049,183
22.9191,177
22.9333,189
22.9474,183
22.9616,207
22.9758,151
22.99,172
23.0041,175
23.0183,156
23.0325,170
23.0467,155
23.0608,179
23.075,152
23.0892,148
23.1034,154
23.1175,182
23.1317,142
23.1459,176
23.1601,179
23.1742,154
23.1884,177
23.2026,156
23.2168,151
23.2309,156
23.2451,156
23.2593,144
23.2735,172
23.2876,152
23.3018,156
23.316,180
23.3302,151
23.3443,141
23.3585,141
23.3727,165
23.3869,160
23.401,156
23.4152,150
23.4294,159
23.4436,145
23.4577,156
23.4719,150
23.4861,141
23.5003,150
23.5144,140
23.5286,174
23.5428,159
23.557,133
23.5711,136
23.5853,149
23.5995,133
23.6137,148
23.6279,169
23.642,167
23.6562,152
23.6704,124
23.6846,154
23.6987,147
23.7129,147
23.7271,140
23.7413,142
23.7554,149
23.7696,169
23.7838,160
23.798,150
23.8121,151
23.8263,159
23.8405,145
23.8547,129
23.8688,149
23.883,145
23.8972,165
23.9114,156
23.9255,169
23.9397,158
23.9539,138
23.9681,150
23.9822,156
23.9964,159
24.0106,177
24.0248,174
24.0389,163
24.0531,164
24.0673,162
24.0815,163
24.0956,170
24.1098,149
24.124,156
24.1382,147
24.1523,140
24.1665,172
24.1807,166
24.1949,161
24.209,144
24.2232,177
24.2374,147
24.2516,181
24.2657,170
24.2799,174
24.2941,133
24.3083,158
24.3224,156
24.3366,142
24.3508,137
24.365,161
24.3791,175
24.3933,150
24.4075,160
24.4217,169
24.4358,141
24.45,150
24.4642,145
24.4784,130
24.4925,150
24.5067,142
24.5209,146
24.5351,168
24.5492,153
24.5634,137
24.5776,174
24.5918,158
24.6059,146
24.6201,156
24.6343,150
24.6485,180
24.6626,153
24.6768,133
24.691,157
24.7052,143
24.7193,172
24.7335,164
24.7477,138
24.7619,163
24.776,162
24.7902,173
24.8044,142
24.8186,175
24.8327,182
24.8469,179
24.8611,173
24.8753,146
24.8894,168
24.9036,170
24.9178,154
24.932,168
24.9461,161
24.9603,153
24.9745,167
24.9887,150
25.0028,171
25.017,170
25.0312,184
25.0454,170
25.0595,135
25.0737,168
25.0879,164
25.1021,183
25.1162,172
25.1304,161
25.1446,159
25.1588,152
25.1729,201
25.1871,186
25.2013,183
25.2155,158
25.2296,168
25.2438,177
25.258,166
25.2722,168
25.2863,181
25.3005,185
25.3147,192
25.3289,177
25.343,180
25.3572,179
25.3714,185
25.3856,173
25.3997,170
25.4139,199
25.4281,181
25.4423,169
25.4564,162
25.4706,176
25.4848,200
25.499,187
25.5131,194
25.5273,194
25.5415,221
25.5557,201
25.5698,209
25.584,219
25.5982,248
25.6124,220
25.6265,244
25.6407,274
25.6549,294
25.6691,281
25.6832,312
25.6974,304
25.7116,362
25.7258,375
25.7399,365
25.7541,370
25.7683,411
25.7825,439
25.7966,422
25.8108,501
25.825,463
25.8392,419
25.8533,461
25.8675,458
25.8817,458
25.8959,454
25.91,381
25.9242,355
25.9384,357
25.9526,329
25.9667,340
25.9809,285
25.9951,258
26.0093,272
26.0234,266
26.0376,221
26.0518,210
26.066,246
26.0801,206
26.0943,208
26.1085,182
26.1227,197
26.1368,192
26.151,203
26.1652,189
26.1794,167
26.1935,203
26.2077,191
26.2219,190
26.2361,161
26.2502,183
26.2644,175
26.2786,194
26.2928,197
26.3069,170
26.3211,171
26.3353,169
26.3495,179
26.3636,190
26.3778,165
26.392,168
26.4062,166
26.4203,179
26.4345,194
26.4487,167
26.4629,138
26.477,186
26.4912,164
26.5054,191
26.5196,176
26.5337,170
26.5479,175
26.5621,170
26.5763,187
26.5904,154
26.6046,171
26.6188,174
26.633,190
26.6471,187
26.6613,199
26.6755,182
26.6897,209
26.7038,182
26.718,186
26.7322,164
26.7464,201
26.7605,192
26.7747,203
26.7889,178
26.8031,219
26.8172,183
26.8314,186
26.8456,212
26.8598,171
26.8739,179
26.8881,156
26.9023,193
26.9165,180
26.9306,189
26.9448,168
26.959,172
26.9732,173
26.9873,176
27.0015,164
27.0157,192
27.0299,179
27.044,182
27.0582,210
27.0724,191
27.0866,176
27.1007,181
27.1149,185
27.1291,175
27.1433,160
27.1574,190
27.1716,179
27.1858,166
27.2,198
27.2141,160
27.2283,213
27.2425,175
27.2567,201
27.2708,199
27.285,192
27.2992,200
27.3134,179
27.3275,194
27.3417,208
27.3559,187
27.3701,171
27.3842,161
27.3984,194
27.4126,213
27.4268,205
27.441,223
27.4551,207
27.4693,185
27.4835,193
27.4977,187
27.5118,199
27.526,215
27.5402,224
27.5544,201
27.5685,227
27.5827,191
27.5969,197
27.6111,230
27.6252,228
27.6394,204
27.6536,229
27.6678,235
27.6819,215
27.6961,199
27.7103,202
27.7245,222
27.7386,202
27.7528,242
27.767,248
27.7812,247
27.7953,220
27.8095,215
27.8237,239
27.8379,210
27.852,230
27.8662,241
27.8804,256
27.8946,206
27.9087,219
27.9229,231
27.9371,243
27.9513,225
27.9654,219
27.9796,271
27.9938,256
28.008,226
28.0221,275
28.0363,291
28.0505,263
28.0647,251
28.0788,267
28.093,281
28.1072,278
28.1214,266
28.1355,273
28.1497,272
28.1639,261
28.1781,290
28.1922,269
28.2064,275
28.2206,266
28.2348,276
28.2489,258
28.2631,254
28.2773,229
28.2915,231
28.3056,230
28.3198,246
28.334,277
28.3482,259
28.3623,229
28.3765,272
28.3907,258
28.4049,248
28.419,270
28.4332,240
28.4474,281
28.4616,253
28.4757,300
28.4899,242
28.5041,279
28.5183,251
28.5324,262
28.5466,272
28.5608,243
28.575,249
28.5891,283
28.6033,257
28.6175,273
28.6317,248
28.6458,305
28.66,289
28.6742,277
28.6884,299
28.7025,263
28.7167,256
28.7309,320
28.7451,325
28.7592,325
28.7734,316
28.7876,349
28.8018,376
28.8159,377
28.8301,363
28.8443,352
28.8585,342
28.8726,367
28.8868,368
28.901,349
28.9152,383
28.9293,377
28.9435,359
28.9577,339
28.9719,322
28.986,343
29.0002,319
29.0144,320
29.0286,352
29.0427,309
29.0569,306
29.0711,306
29.0853,334
29.0994,313
29.1136,311
29.1278,285
29.142,296
29.1561,276
29.1703,306
29.1845,317
29.1987,327
29.2128,326
29.227,326
29.2412,319
29.2554,341
29.2695,311
29.2837,329
29.2979,340
29.3121,355
29.3262,385
29.3404,391
29.3546,414
29.3688,392
29.3829,389
29.3971,400
29.4113,351
29.4255,352
29.4396,392
29.4538,351
29.468,351
29.4822,335
29.4963,348
29.5105,317
29.5247,344
29.5389,318
29.553,331
29.5672,311
29.5814,319
29.5956,311
29.6097,279
29.6239,331
29.6381,322
29.6523,281
29.6664,273
29.6806,289
29.6948,295
29.709,317
29.7231,279
29.7373,272
29.7515,281
29.7657,252
29.7798,252
29.794,263
29.8082,290
29.8224,251
29.8365,260
29.8507,246
29.8649,259
29.8791,275
29.8932,282
29.9074,258
29.9216,232
29.9358,251
29.9499,254
29.9641,275
29.9783,267
29.9925,270
30.0066,224
30.0208,250
30.035,229
30.0492,246
30.0633,249
30.0775,220
30.0917,234
30.1059,236
30.12,239
30.1342,231
30.1484,262
30.1626,233
30.1767,241
30.1909,236
30.2051,231
30.2193,240
30.2334,247
30.2476,236
30.2618,229
30.276,230
30.2901,227
30.3043,238
30.3185,238
30.3327,235
30.3468,233
30.361,247
30.3752,262
30.3894,236
30.4035,244
30.4177,226
30.4319,234
30.4461,233
30.4602,253
30.4744,274
30.4886,250
30.5028,268
30.5169,287
30.5311,274
30.5453,268
30.5595,279
30.5736,299
30.5878,278
30.602,300
30.6162,292
30.6303,296
30.6445,303
30.6587,298
30.6729,304
30.687,313
30.7012,283
30.7154,286
30.7296,320
30.7437,288
30.7579,282
30.7721,283
30.7863,268
30.8004,260
30.8146,304
30.8288,240
30.843,279
30.8571,256
30.8713,265
30.8855,315
30.8997,280
30.9138,306
30.928,323
30.9422,289
30.9564,315
30.9705,291
30.9847,249
30.9989,287
31.0131,295
31.0272,274
31.0414,276
31.0556,298
31.0698,278
31.0839,278
31.0981,307
31.1123,261
31.1265,290
31.1406,306
31.1548,298
31.169,300
31.1832,270
31.1973,294
31.2115,323
31.2257,352
31.2399,318
31.2541,304
31.2682,353
31.2824,343
31.2966,354
31.3108,370
31.3249,340
31.3391,374
31.3533,373
31.3675,436
31.3816,405
31.3958,407
31.41,435
31.4242,464
31.4383,470
31.4525,476
31.4667,470
31.4809,530
31.495,548
31.5092,566
31.5234,566
31.5376,648
31.5517,638
31.5659,780
31.5801,786
31.5943,813
31.6084,896
31.6226,922
31.6368,958
31.651,1074
31.6651,1047
31.6793,1109
31.6935,1145
31.7077,1167
31.7218,1093
31.736,1037
31.7502,1018
31.7644,1011
31.7785,1017
31.7927,1003
31.8069,928
31.8211,844
31.8352,841
31.8494,852
31.8636,738
31.8778,744
31.8919,689
31.9061,651
31.9203,630
31.9345,629
31.9486,583
31.9628,545
31.977,634
31.9912,633
32.0053,586
32.0195,632
32.0337,620
32.0479,589
32.062,622
32.0762,702
32.0904,720
32.1046,687
32.1187,695
32.1329,720
32.1471,785
32.1613,722
32.1754,747
32.1896,723
32.2038,637
32.218,623
32.2321,577
32.2463,579
32.2605,566
32.2747,519
32.2888,515
32.303,505
32.3172,463
32.3314,405
32.3455,455
32.3597,410
32.3739,419
32.3881,391
32.4022,398
32.4164,376
32.4306,374
32.4448,380
32.4589,405
32.4731,366
32.4873,390
32.5015,399
32.5156,366
32.5298,370
32.544,366
32.5582,396
32.5723,362
32.5865,414
32.6007,445
32.6149,451
32.629,424
32.6432,420
32.6574,477
32.6716,531
32.6857,536
32.6999,567
32.7141,601
32.7283,634
32.7424,613
32.7566,659
32.7708,737
32.785,699
32.7991,809
32.8133,710
32.8275,739
32.8417,782
32.8558,731
32.87,760
32.8842,716
32.8984,677
32.9125,684
32.9267,616
32.9409,596
32.9551,523
32.9692,533
32.9834,530
32.9976,495
33.0118,474
33.0259,379
33.0401,376
33.0543,390
33.0685,388
33.0826,357
33.0968,347
33.111,351
33.1252,330
33.1393,317
33.1535,330
33.1677,304
33.1819,288
33.196,285
33.2102,325
33.2244,268
33.2386,274
33.2527,278
33.2669,274
33.2811,269
33.2953,253
33.3094,244
33.3236,290
33.3378,266
33.352,266
33.3661,233
33.3803,228
33.3945,226
33.4087,237
33.4228,226
33.437,231
33.4512,244
33.4654,251
33.4795,230
33.4937,253
33.5079,214
33.5221,239
33.5362,226
33.5504,241
33.5646,228
33.5788,225
33.5929,201
33.6071,235
33.6213,221
33.6355,201
33.6496,225
33.6638,217
33.678,218
33.6922,227
33.7063,231
33.7205,215
33.7347,236
33.7489,252
33.763,258
33.7772,222
33.7914,242
33.8056,208
33.8197,238
33.8339,248
33.8481,258
33.8623,267
33.8764,261
33.8906,286
33.9048,271
33.919,250
33.9331,313
33.9473,277
33.9615,319
33.9757,347
33.9898,349
34.004,332
34.0182,315
34.0324,326
34.0465,318
34.0607,315
34.0749,335
34.0891,302
34.1032,295
34.1174,305
34.1316,271
34.1458,277
34.1599,280
34.1741,255
34.1883,239
34.2025,210
34.2166,226
34.2308,192
34.245,236
34.2592,203
34.2733,208
34.2875,240
34.3017,212
34.3159,239
34.33,194
34.3442,216
34.3584,218
34.3726,177
34.3867,201
34.4009,199
34.4151,216
34.4293,192
34.4434,215
34.4576,210
34.4718,193
34.486,190
34.5001,186
34.5143,187
34.5285,197
34.5427,198
34.5568,167
34.571,179
34.5852,160
34.5994,167
34.6135,172
34.6277,167
34.6419,178
34.6561,157
34.6702,197
34.6844,185
34.6986,164
34.7128,159
34.7269,150
34.7411,176
34.7553,158
34.7695,168
34.7836,182
34.7978,169
34.812,154
34.8262,167
34.8403,155
34.8545,170
34.8687,201
34.8829,142
34.897,126
34.9112,160
34.9254,177
34.9396,145
34.9537,154
34.9679,165
34.9821,154
34.9963,168
35.0104,180
35.0246,162
35.0388,139
35.053,166
35.0672,159
35.0813,158
35.0955,156
35.1097,152
35.1239,154
35.138,153
35.1522,166
35.1664,167
35.1806,177
35.1947,175
35.2089,143
35.2231,171
35.2373,159
35.2514,185
35.2656,178
35.2798,176
35.294,176
35.3081,186
35.3223,159
35.3365,196
35.3507,209
35.3648,173
35.379,199
35.3932,199
35.4074,175
35.4215,179
35.4357,178
35.4499,163
35.4641,162
35.4782,200
35.4924,206
35.5066,194
35.5208,192
35.5349,165
35.5491,181
35.5633,152
35.5775,173
35.5916,141
35.6058,133
35.62,191
35.6342,149
35.6483,177
35.6625,161
35.6767,153
35.6909,146
35.705,151
35.7192,150
35.7334,159
35.7476,166
35.7617,189
35.7759,157
35.7901,138
35.8043,156
35.8184,135
35.8326,140
35.8468,162
35.861,139
35.8751,162
35.8893,160
35.9035,167
35.9177,157
35.9318,152
35.946,166
35.9602,142
35.9744,150
35.9885,143
36.0027,156
36.0169,146
36.0311,137
36.0452,154
36.0594,158
36.0736,147
36.0878,145
36.1019,152
36.1161,128
36.1303,121
36.1445,164
36.1586,158
36.1728,154
36.187,132
36.2012,160
36.2153,160
36.2295,116
36.2437,145
36.2579,141
36.272,138
36.2862,142
36.3004,149
36.3146,134
36.3287,135
36.3429,161
36.3571,126
36.3713,128
36.3854,154
36.3996,140
36.4138,113
36.428,142
36.4421,147
36.4563,143
36.4705,142
36.4847,145
36.4988,117
36.513,141
36.5272,115
36.5414,130
36.5555,137
36.5697,144
36.5839,148
36.5981,135
36.6122,144
36.6264,147
36.6406,150
36.6548,146
36.6689,136
36.6831,133
36.6973,134
36.7115,128
36.7256,139
36.7398,130
36.754,130
36.7682,151
36.7823,120
36.7965,143
36.8107,149
36.8249,145
36.839,118
36.8532,140
36.8674,126
36.8816,132
36.8957,157
36.9099,139
36.9241,138
36.9383,157
36.9524,167
36.9666,113
36.9808,158
36.995,144
37.0091,151
37.0233,122
37.0375,134
37.0517,142
37.0658,156
37.08,153
37.0942,144
37.1084,152
37.1225,156
37.1367,125
37.1509,128
37.1651,144
37.1792,134
37.1934,117
37.2076,161
37.2218,147
37.2359,128
37.2501,154
37.2643,145
37.2785,156
37.2926,141
37.3068,141
37.321,144
37.3352,140
37.3493,136
37.3635,132
37.3777,131
37.3919,124
37.406,138
37.4202,149
37.4344,163
37.4486,158
37.4627,150
37.4769,166
37.4911,141
37.5053,133
37.5194,124
37.5336,142
37.5478,127
37.562,129
37.5761,140
37.5903,137
37.6045,119
37.6187,148
37.6328,139
37.647,132
37.6612,133
37.6754,149
37.6895,144
37.7037,153
37.7179,155
37.7321,145
37.7462,135
37.7604,138
37.7746,126
37.7888,129
37.8029,140
37.8171,155
37.8313,152
37.8455,164
37.8596,143
37.8738,131
37.888,165
37.9022,134
37.9163,134
37.9305,151
37.9447,145
37.9589,124
37.973,153
37.9872,136
38.0014,132
38.0156,141
38.0297,145
38.0439,158
38.0581,159
38.0723,145
38.0864,143
38.1006,132
38.1148,141
38.129,151
38.1431,149
38.1573,149
38.1715,150
38.1857,165
38.1998,130
38.214,148
38.2282,125
38.2424,153
38.2565,134
38.2707,150
38.2849,148
38.2991,132
38.3132,122
38.3274,141
38.3416,155
38.3558,141
38.3699,135
38.3841,145
38.3983,151
38.4125,132
38.4266,137
38.4408,137
38.455,153
38.4692,149
38.4833,151
38.4975,147
38.5117,151
38.5259,155
38.54,139
38.5542,125
38.5684,127
38.5826,189
38.5967,143
38.6109,142
38.6251,154
38.6393,161
38.6534,156
38.6676,150
38.6818,164
38.696,154
38.7101,162
38.7243,151
38.7385,141
38.7527,148
38.7668,152
38.781,130
38.7952,125
38.8094,144
38.8235,156
38.8377,156
38.8519,157
38.8661,153
38.8803,162
38.8944,142
38.9086,173
38.9228,146
38.937,168
38.9511,199
38.9653,168
38.9795,185
38.9937,167
39.0078,205
39.022,190
39.0362,193
39.0504,176
39.0645,166
39.0787,160
39.0929,203
39.1071,208
39.1212,204
39.1354,194
39.1496,195
39.1638,192
39.1779,185
39.1921,207
39.2063,191
39.2205,200
39.2346,199
39.2488,198
39.263,203
39.2772,213
39.2913,195
39.3055,218
39.3197,180
39.3339,203
39.348,212
39.3622,232
39.3764,224
39.3906,196
39.4047,207
39.4189,200
39.4331,193
39.4473,211
39.4614,207
39.4756,225
39.4898,253
39.504,221
39.5181,230
39.5323,226
39.5465,249
39.5607,276
39.5748,232
39.589,291
39.6032,306
39.6174,289
39.6315,343
39.6457,297
39.6599,339
39.6741,347
39.6882,336
39.7024,343
39.7166,334
39.7308,353
39.7449,332
39.7591,346
39.7733,359
39.7875,315
39.8016,321
39.8158,294
39.83,297
39.8442,283
39.8583,278
39.8725,253
39.8867,284
39.9009,240
39.915,251
39.9292,226
39.9434,229
39.9576,226
39.9717,182
39.9859,245
40.0001,201
40.0143,195
40.0284,214
40.0426,175
40.0568,164
40.071,183
40.0851,201
40.0993,200
40.1135,179
40.1277,169
40.1418,179
40.156,160
40.1702,173
40.1844,164
40.1985,157
40.2127,173
40.2269,151
40.2411,176
40.2552,163
40.2694,165
40.2836,165
40.2978,166
40.3119,168
40.3261,186
40.3403,150
40.3545,161
40.3686,162
40.3828,176
40.397,162
40.4112,180
40.4253,181
40.4395,167
40.4537,152
40.4679,168
40.482,172
40.4962,146
40.5104,162
40.5246,145
40.5387,181
40.5529,162
40.5671,138
40.5813,170
40.5954,153
40.6096,171
40.6238,177
40.638,159
40.6521,148
40.6663,152
40.6805,161
40.6947,150
40.7088,147
40.723,159
40.7372,175
40.7514,156
40.7655,157
40.7797,159
40.7939,146
40.8081,151
40.8222,165
40.8364,149
40.8506,168
40.8648,147
40.8789,164
40.8931,137
40.9073,126
40.9215,136
40.9356,158
40.9498,145
40.964,153
40.9782,165
40.9923,146
41.0065,170
41.0207,142
41.0349,150
41.049,151
41.0632,133
41.0774,162
41.0916,160
41.1057,183
41.1199,136
41.1341,148
41.1483,150
41.1624,150
41.1766,129
41.1908,125
41.205,160
41.2191,151
41.2333,153
41.2475,142
41.2617,155
41.2758,128
41.29,157
41.3042,152
41.3184,144
41.3325,152
41.3467,153
41.3609,138
41.3751,140
41.3892,154
41.4034,163
41.4176,151
41.4318,140
41.4459,126
41.4601,135
41.4743,153
41.4885,166
41.5026,120
41.5168,136
41.531,185
41.5452,156
41.5593,157
41.5735,146
41.5877,157
41.6019,168
41.616,168
41.6302,172
41.6444,208
41.6586,182
41.6727,178
41.6869,181
41.7011,171
41.7153,163
41.7294,178
41.7436,162
41.7578,175
41.772,175
41.7861,168
41.8003,177
41.8145,204
41.8287,196
41.8428,177
41.857,186
41.8712,211
41.8854,165
41.8995,200
41.9137,191
41.9279,192
41.9421,196
41.9562,184
41.9704,193
41.9846,204
41.9988,190
42.0129,187
42.0271,160
42.0413,203
42.0555,193
42.0696,198
42.0838,196
42.098,179
42.1122,188
42.1263,182
42.1405,184
42.1547,184
42.1689,187
42.183,167
42.1972,177
42.2114,173
42.2256,187
42.2397,187
42.2539,177
42.2681,162
42.2823,189
42.2964,174
42.3106,175
42.3248,176
42.339,182
42.3531,158
42.3673,179
42.3815,199
42.3957,178
42.4098,190
42.424,191
42.4382,172
42.4524,164
42.4665,158
42.4807,177
42.4949,161
42.5091,165
42.5232,161
42.5374,188
42.5516,173
42.5658,149
42.5799,175
42.5941,157
42.6083,175
42.6225,144
42.6366,153
42.6508,168
42.665,159
42.6792,152
42.6933,169
42.7075,177
42.7217,178
42.7359,183
42.7501,164
42.7642,141
42.7784,148
42.7926,171
42.8068,158
42.8209,155
42.8351,175
42.8493,156
42.8635,155
42.8776,176
42.8918,160
42.906,176
42.9202,180
42.9343,146
42.9485,154
42.9627,155
42.9769,173
42.991,175
43.0052,153
43.0194,164
43.0336,177
43.0477,148
43.0619,178
43.0761,162
43.0903,177
43.1044,181
43.1186,165
43.1328,164
43.147,165
43.1611,175
43.1753,153
43.1895,154
43.2037,163
43.2178,185
43.232,166
43.2462,183
43.2604,158
43.2745,174
43.2887,165
43.3029,174
43.3171,161
43.3312,140
43.3454,162
43.3596,146
43.3738,167
43.3879,158
43.4021,160
43.4163,153
43.4305,153
43.4446,161
43.4588,161
43.473,178
43.4872,154
43.5013,155
43.5155,170
43.5297,162
43.5439,153
43.558,150
43.5722,156
43.5864,145
43.6006,143
43.6147,180
43.6289,166
43.6431,149
43.6573,160
43.6714,179
43.6856,176
43.6998,163
43.714,172
43.7281,192
43.7423,178
43.7565,198
43.7707,172
43.7848,176
43.799,172
43.8132,176
43.8274,212
43.8415,178
43.8557,177
43.8699,161
43.8841,169
43.8982,188
43.9124,162
43.9266,182
43.9408,209
43.9549,191
43.9691,168
43.9833,188
43.9975,155
44.0116,165
44.0258,171
44.04,158
44.0542,154
44.0683,157
44.0825,160
44.0967,139
44.1109,169
44.125,154
44.1392,168
44.1534,165
44.1676,175
44.1817,161
44.1959,141
44.2101,152
44.2243,137
44.2384,165
44.2526,146
44.2668,160
44.281,161
44.2951,143
44.3093,166
44.3235,167
44.3377,153
44.3518,152
44.366,136
44.3802,144
44.3944,140
44.4085,145
44.4227,156
44.4369,151
44.4511,114
44.4652,147
44.4794,160
44.4936,128
44.5078,142
44.5219,161
44.5361,168
44.5503,139
44.5645,142
44.5786,142
44.5928,120
44.607,158
44.6212,150
44.6353,147
44.6495,154
44.6637,140
44.6779,150
44.692,145
44.7062,141
44.7204,138
44.7346,134
44.7487,158
44.7629,157
44.7771,138
44.7913,151
44.8054,143
44.8196,148
44.8338,135
44.848,148
44.8621,146
44.8763,149
44.8905,138
44.9047,148
44.9188,152
44.933,154
44.9472,152
44.9614,158
44.9755,156
44.9897,134
45.0039,150
45.0181,134
45.0322,162
45.0464,148
45.0606,147
45.0748,159
45.0889,159
45.1031,161
45.1173,155
45.1315,155
45.1456,149
45.1598,154
45.174,187
45.1882,166
45.2023,170
45.2165,148
45.2307,174
45.2449,184
45.259,182
45.2732,157
45.2874,169
45.3016,160
45.3157,167
45.3299,158
45.3441,167
45.3583,139
45.3724,172
45.3866,177
45.4008,161
45.415,147
45.4291,152
45.4433,162
45.4575,151
45.4717,137
45.4858,150
45.5,143
45.5142,158
45.5284,147
45.5425,148
45.5567,181
45.5709,152
45.5851,163
45.5992,164
45.6134,134
45.6276,167
45.6418,139
45.6559,173
45.6701,166
45.6843,152
45.6985,144
45.7126,129
45.7268,157
45.741,151
45.7552,115
45.7693,137
45.7835,151
45.7977,153
45.8119,155
45.826,148
45.8402,148
45.8544,146
45.8686,162
45.8827,162
45.8969,148
45.9111,159
45.9253,154
45.9394,159
45.9536,169
45.9678,163
45.982,159
45.9961,158
46.0103,162
46.0245,155
46.0387,163
46.0528,151
46.067,138
46.0812,133
46.0954,142
46.1095,153
46.1237,178
46.1379,144
46.1521,156
46.1662,167
46.1804,173
46.1946,173
46.2088,173
46.2229,183
46.2371,174
46.2513,174
46.2655,170
46.2796,172
46.2938,167
46.308,160
46.3222,188
46.3363,189
46.3505,221
46.3647,202
46.3789,223
46.393,210
46.4072,180
46.4214,219
46.4356,250
46.4497,236
46.4639,240
46.4781,248
46.4923,299
46.5064,306
46.5206,294
46.5348,315
46.549,329
46.5632,343
46.5773,333
46.5915,379
46.6057,345
46.6199,382
46.634,352
46.6482,372
46.6624,368
46.6766,373
46.6907,340
46.7049,346
46.7191,327
46.7333,299
46.7474,328
46.7616,293
46.7758,281
46.79,275
46.8041,284
46.8183,238
46.8325,267
46.8467,252
46.8608,241
46.875,230
46.8892,239
46.9034,221
46.9175,223
46.9317,201
46.9459,209
46.9601,190
46.9742,218
46.9884,206
47.0026,203
47.0168,183
47.0309,196
47.0451,200
47.0593,205
47.0735,191
47.0876,183
47.1018,210
47.116,204
47.1302,206
47.1443,203
47.1585,184
47.1727,217
47.1869,194
47.201,204
47.2152,192
47.2294,191
47.2436,195
47.2577,204
47.2719,187
47.2861,194
47.3003,207
47.3144,197
47.3286,199
47.3428,191
47.357,173
47.3711,187
47.3853,205
47.3995,216
47.4137,202
47.4278,165
47.442,196
47.4562,203
47.4704,189
47.4845,190
47.4987,195
47.5129,196
47.5271,172
47.5412,214
47.5554,203
47.5696,182
47.5838,190
47.5979,207
47.6121,188
47.6263,201
47.6405,196
47.6546,202
47.6688,167
47.683,193
47.6972,207
47.7113,226
47.7255,217
47.7397,230
47.7539,203
47.768,192
47.7822,203
47.7964,230
47.8106,221
47.8247,214
47.8389,208
47.8531,200
47.8673,236
47.8814,221
47.8956,242
47.9098,244
47.924,255
47.9381,242
47.9523,232
47.9665,251
47.9807,261
47.9948,282
48.009,245
48.0232,250
48.0374,249
48.0515,250
48.0657,242
48.0799,246
48.0941,243
48.1082,223
48.1224,248
48.1366,204
48.1508,231
48.1649,205
48.1791,220
48.1933,225
48.2075,222
48.2216,195
48.2358,198
48.25,223
48.2642,238
48.2783,200
48.2925,207
48.3067,201
48.3209,215
48.335,208
48.3492,203
48.3634,200
48.3776,213
48.3917,211
48.4059,230
48.4201,201
48.4343,222
48.4484,223
48.4626,233
48.4768,221
48.491,249
48.5051,249
48.5193,226
48.5335,219
48.5477,191
48.5618,202
48.576,217
48.5902,211
48.6044,243
48.6185,204
48.6327,214
48.6469,214
48.6611,201
48.6752,194
48.6894,201
48.7036,201
48.7178,180
48.7319,191
48.7461,183
48.7603,187
48.7745,193
48.7886,158
48.8028,184
48.817,180
48.8312,184
48.8453,177
48.8595,185
48.8737,207
48.8879,180
48.902,193
48.9162,213
48.9304,185
48.9446,187
48.9587,193
48.9729,210
48.9871,201
49.0013,212
49.0154,221
49.0296,207
49.0438,199
49.058,233
49.0721,204
49.0863,236
49.1005,223
49.1147,244
49.1288,243
49.143,207
49.1572,247
49.1714,248
49.1855,254
49.1997,267
49.2139,271
49.2281,272
49.2422,273
49.2564,246
49.2706,287
49.2848,297
49.2989,293
49.3131,325
49.3273,323
49.3415,349
49.3556,342
49.3698,329
49.384,375
49.3982,353
49.4123,382
49.4265,365
49.4407,363
49.4549,410
49.469,400
49.4832,360
49.4974,378
49.5116,365
49.5257,341
49.5399,311
49.5541,311
49.5683,319
49.5824,311
49.5966,299
49.6108,298
49.625,286
49.6391,262
49.6533,268
49.6675,278
49.6817,239
49.6958,260
49.71,239
49.7242,240
49.7384,208
49.7525,212
49.7667,256
49.7809,223
49.7951,211
49.8092,204
49.8234,229
49.8376,192
49.8518,221
49.8659,211
49.8801,226
49.8943,202
49.9085,216
49.9226,221
49.9368,212
49.951,210
49.9652,206
49.9793,205
49.9935,193
50.0077,215
50.0219,190
50.036,215
50.0502,166
50.0644,220
50.0786,204
50.0927,209
50.1069,232
50.1211,212
50.1353,213
50.1494,228
50.1636,213
50.1778,242
50.192,234
50.2061,240
50.2203,228
50.2345,234
50.2487,231
50.2628,223
50.277,232
50.2912,288
50.3054,271
50.3195,314
50.3337,278
50.3479,297
50.3621,278
50.3763,273
50.3904,290
50.4046,292
50.4188,298
50.433,270
50.4471,258
50.4613,263
50.4755,266
50.4897,247
50.5038,279
50.518,276
50.5322,269
50.5464,256
50.5605,245
50.5747,206
50.5889,234
50.6031,245
50.6172,227
50.6314,208
50.6456,233
50.6598,215
50.6739,228
50.6881,205
50.7023,191
50.7165,179
50.7306,186
50.7448,189
50.759,224
50.7732,220
50.7873,184
50.8015,160
50.8157,189
50.8299,209
50.844,197
50.8582,168
50.8724,174
50.8866,207
50.9007,187
50.9149,176
50.9291,192
50.9433,203
50.9574,205
50.9716,209
50.9858,202
51,202
51.0141,232
51.0283,213
51.0425,204
51.0567,230
51.0708,227
51.085,222
51.0992,216
51.1134,232
51.1275,261
51.1417,222
51.1559,237
51.1701,216
51.1842,225
51.1984,235
51.2126,230
51.2268,225
51.2409,235
51.2551,252
51.2693,227
51.2835,222
51.2976,212
51.3118,213
51.326,207
51.3402,248
51.3543,204
51.3685,209
51.3827,201
51.3969,231
51.411,188
51.4252,213
51.4394,201
51.4536,185
51.4677,183
51.4819,177
51.4961,209
51.5103,183
51.5244,208
51.5386,186
51.5528,171
51.567,168
51.5811,165
51.5953,195
51.6095,169
51.6237,177
51.6378,191
51.652,172
51.6662,170
51.6804,205
51.6945,195
51.7087,179
51.7229,185
51.7371,172
51.7512,195
51.7654,218
51.7796,174
51.7938,175
51.8079,210
51.8221,203
51.8363,211
51.8505,207
51.8646,203
51.8788,213
51.893,216
51.9072,218
51.9213,242
51.9355,224
51.9497,243
51.9639,205
51.978,239
51.9922,242
52.0064,229
52.0206,234
52.0347,197
52.0489,241
52.0631,225
52.0773,209
52.0914,220
52.1056,214
52.1198,214
52.134,204
52.1481,241
52.1623,189
52.1765,208
52.1907,173
52.2048,207
52.219,184
52.2332,169
52.2474,188
52.2615,172
52.2757,145
52.2899,205
52.3041,170
52.3182,169
52.3324,175
52.3466,183
52.3608,177
52.3749,167
52.3891,188
52.4033,154
52.4175,174
52.4316,165
52.4458,152
52.46,147
52.4742,182
52.4883,160
52.5025,153
52.5167,143
52.5309,156
52.545,173
52.5592,147
52.5734,162
52.5876,151
52.6017,134
52.6159,175
52.6301,158
52.6443,140
52.6584,154
52.6726,161
52.6868,152
52.701,166
52.7151,163
52.7293,179
52.7435,179
52.7577,163
52.7718,151
52.786,174
52.8002,184
52.8144,190
52.8285,158
52.8427,191
52.8569,174
52.8711,178
52.8852,195
52.8994,193
52.9136,194
52.9278,198
52.9419,225
52.9561,204
52.9703,195
52.9845,190
52.9986,208
53.0128,200
53.027,217
53.0412,224
53.0553,219
53.0695,222
53.0837,223
53.0979,229
53.112,245
53.1262,233
53.1404,244
53.1546,236
53.1687,249
53.1829,290
53.1971,228
53.2113,239
53.2254,236
53.2396,215
53.2538,213
53.268,216
53.2821,218
53.2963,197
53.3105,184
53.3247,192
53.3388,179
53.353,194
53.3672,179
53.3814,189
53.3955,183
53.4097,177
53.4239,152
53.4381,179
53.4522,160
53.4664,171
53.4806,167
53.4948,197
53.5089,157
53.5231,180
53.5373,176
53.5515,187
53.5656,159
53.5798,152
53.594,139
53.6082,159
53.6223,166
53.6365,176
53.6507,168
53.6649,150
53.679,157
53.6932,162
53.7074,171
53.7216,157
53.7357,140
53.7499,142
53.7641,153
53.7783,145
53.7924,140
53.8066,149
53.8208,147
53.835,135
53.8491,132
53.8633,143
53.8775,155
53.8917,142
53.9058,157
53.92,169
53.9342,139
53.9484,132
53.9625,129
53.9767,137
53.9909,139
54.0051,151
54.0192,131
54.0334,140
54.0476,123
54.0618,164
54.0759,131
54.0901,127
54.1043,141
54.1185,137
54.1326,149
54.1468,116
54.161,127
54.1752,142
54.1894,108
54.2035,141
54.2177,126
54.2319,132
54.2461,138
54.2602,123
54.2744,110
54.2886,143
54.3028,148
54.3169,137
54.3311,138
54.3453,152
54.3595,136
54.3736,125
54.3878,150
54.402,142
54.4162,153
54.4303,111
54.4445,147
54.4587,133
54.4729,141
54.487,126
54.5012,154
54.5154,137
54.5296,135
54.5437,147
54.5579,123
54.5721,140
54.5863,134
54.6004,136
54.6146,138
54.6288,136
54.643,139
54.6571,138
54.6713,121
54.6855,134
54.6997,128
54.7138,136
54.728,146
54.7422,130
54.7564,122
54.7705,127
54.7847,109
54.7989,129
54.8131,135
54.8272,134
54.8414,119
54.8556,148
54.8698,138
54.8839,138
54.8981,114
54.9123,131
54.9265,157
54.9406,117
54.9548,122
54.969,144
54.9832,104
54.9973,130
55.0115,111
55.0257,142
55.0399,131
55.054,127
55.0682,141
55.0824,132
55.0966,138
55.1107,126
55.1249,133
55.1391,129
55.1533,135
55.1674,120
55.1816,125
55.1958,128
55.21,137
55.2241,135
55.2383,148
55.2525,121
55.2667,130
55.2808,149
55.295,131
55.3092,140
55.3234,148
55.3375,115
55.3517,130
55.3659,144
55.3801,136
55.3942,149
55.4084,143
55.4226,145
55.4368,150
55.4509,123
55.4651,147
55.4793,138
55.4935,160
55.5076,149
55.5218,148
55.536,154
55.5502,136
55.5643,140
55.5785,134
55.5927,137
55.6069,149
55.621,129
55.6352,146
55.6494,150
55.6636,180
55.6777,155
55.6919,155
55.7061,165
55.7203,185
55.7344,143
55.7486,156
55.7628,179
55.777,188
55.7911,171
55.8053,205
55.8195,161
55.8337,179
55.8478,170
55.862,160
55.8762,173
55.8904,185
55.9045,174
55.9187,157
55.9329,177
55.9471,159
55.9612,157
55.9754,154
55.9896,142
56.0038,153
56.0179,139
56.0321,163
56.0463,145
56.0605,171
56.0746,141
56.0888,160
56.103,135
56.1172,132
56.1313,131
56.1455,121
56.1597,131
56.1739,170
56.188,138
56.2022,160
56.2164,168
56.2306,158
56.2447,146
56.2589,155
56.2731,142
56.2873,153
56.3014,157
56.3156,141
56.3298,139
56.344,127
56.3581,156
56.3723,137
56.3865,124
56.4007,149
56.4148,123
56.429,132
56.4432,138
56.4574,136
56.4715,110
56.4857,145
56.4999,159
56.5141,151
56.5282,162
56.5424,140
56.5566,135
56.5708,144
56.5849,160
56.5991,152
56.6133,140
56.6275,122
56.6416,138
56.6558,124
56.67,142
56.6842,149
56.6983,136
56.7125,119
56.7267,138
56.7409,138
56.755,123
56.7692,135
56.7834,126
56.7976,141
56.8117,153
56.8259,146
56.8401,135
56.8543,141
56.8684,140
56.8826,151
56.8968,152
56.911,144
56.9251,155
56.9393,160
56.9535,149
56.9677,140
56.9818,133
56.996,147
57.0102,145
57.0244,162
57.0385,179
57.0527,151
57.0669,129
57.0811,153
57.0952,148
57.1094,156
57.1236,163
57.1378,159
57.1519,157
57.1661,147
57.1803,148
57.1945,138
57.2086,147
57.2228,143
57.237,148
57.2512,128
57.2653,135
57.2795,129
57.2937,156
57.3079,162
57.322,129
57.3362,123
57.3504,164
57.3646,134
57.3787,147
57.3929,156
57.4071,151
57.4213,134
57.4354,145
57.4496,132
57.4638,143
57.478,136
57.4921,124
57.5063,139
57.5205,114
57.5347,138
57.5488,138
57.563,130
57.5772,141
57.5914,149
57.6055,153
57.6197,130
57.6339,145
57.6481,128
57.6622,137
57.6764,142
57.6906,131
57.7048,146
57.7189,129
57.7331,128
57.7473,156
57.7615,148
57.7756,134
57.7898,130
57.804,138
57.8182,133
57.8323,138
57.8465,127
57.8607,132
57.8749,158
57.889,153
57.9032,143
57.9174,158
57.9316,133
57.9457,116
57.9599,145
57.9741,137
57.9883,164
58.0025,136
58.0166,149
58.0308,144
58.045,126
58.0592,145
58.0733,130
58.0875,123
58.1017,127
58.1159,132
58.13,143
58.1442,149
58.1584,133
58.1726,156
58.1867,133
58.2009,127
58.2151,154
58.2293,139
58.2434,134
58.2576,96
58.2718,141
58.286,110
58.3001,137
58.3143,138
58.3285,122
58.3427,124
58.3568,138
58.371,133
58.3852,133
58.3994,123
58.4135,133
58.4277,128
58.4419,142
58.4561,126
58.4702,124
58.4844,131
58.4986,143
58.5128,117
58.5269,159
58.5411,128
58.5553,141
58.5695,121
58.5836,141
58.5978,117
58.612,108
58.6262,140
58.6403,130
58.6545,143
58.6687,128
58.6829,141
58.697,128
58.7112,121
58.7254,116
58.7396,126
58.7537,127
58.7679,115
58.7821,147
58.7963,141
58.8104,132
58.8246,125
58.8388,125
58.853,115
58.8671,140
58.8813,133
58.8955,129
58.9097,138
58.9238,117
58.938,114
58.9522,117
58.9664,137
58.9805,144
58.9947,130
59.0089,111
59.0231,134
59.0372,151
59.0514,133
59.0656,124
59.0798,125
59.0939,139
59.1081,139
59.1223,131
59.1365,115
59.1506,129
59.1648,155
59.179,121
59.1932,138
59.2073,122
59.2215,124
59.2357,150
59.2499,143
59.264,109
59.2782,135
59.2924,116
59.3066,121
59.3207,125
59.3349,116
59.3491,145
59.3633,136
59.3774,133
59.3916,137
59.4058,139
59.42,130
59.4341,129
59.4483,139
59.4625,154
59.4767,116
59.4908,158
59.505,136
59.5192,140
59.5334,132
59.5475,125
59.5617,167
59.5759,136
59.5901,143
59.6042,134
59.6184,144
59.6326,138
59.6468,140
59.6609,131
59.6751,149
59.6893,144
59.7035,140
59.7176,154
59.7318,164
59.746,151
59.7602,161
59.7743,142
59.7885,141
59.8027,156
59.8169,134
59.831,173
59.8452,140
59.8594,133
59.8736,162
59.8877,156
59.9019,140
59.9161,163
59.9303,130
59.9444,159
59.9586,166
59.9728,150
59.987,129
60.0011,159
60.0153,147
60.0295,147
60.0437,171
60.0578,151
60.072,131
60.0862,149
60.1004,152
60.1145,168
60.1287,148
60.1429,159
60.1571,139
60.1712,140
60.1854,144
60.1996,131
60.2138,164
60.2279,157
60.2421,164
60.2563,129
60.2705,173
60.2846,162
60.2988,171
60.313,155
60.3272,155
60.3413,145
60.3555,148
60.3697,161
60.3839,165
60.398,145
60.4122,140
60.4264,156
60.4406,146
60.4547,146
60.4689,147
60.4831,150
60.4973,148
60.5114,145
60.5256,149
60.5398,155
60.554,147
60.5681,127
60.5823,134
60.5965,126
60.6107,127
60.6248,133
60.639,138
60.6532,138
60.6674,125
60.6815,146
60.6957,130
60.7099,148
60.7241,129
60.7382,137
60.7524,138
60.7666,142
60.7808,139
60.7949,128
60.8091,152
60.8233,121
60.8375,143
60.8516,127
60.8658,120
60.88,143
60.8942,131
60.9083,135
60.9225,145
60.9367,124
60.9509,124
60.965,143
60.9792,147
60.9934,146
61.0076,132
61.0217,151
61.0359,141
61.0501,125
61.0643,131
61.0784,141
61.0926,146
61.1068,151
61.121,145
61.1351,137
61.1493,146
61.1635,110
61.1777,147
61.1918,146
61.206,149
61.2202,149
61.2344,141
61.2485,149
61.2627,138
61.2769,134
61.2911,128
61.3052,159
61.3194,157
61.3336,134
61.3478,135
61.3619,156
61.3761,168
61.3903,169
61.4045,136
61.4186,185
61.4328,170
61.447,163
61.4612,171
61.4753,165
61.4895,175
61.5037,155
61.5179,178
61.532,146
61.5462,177
61.5604,140
61.5746,157
61.5887,164
61.6029,162
61.6171,148
61.6313,168
61.6454,178
61.6596,154
61.6738,142
61.688,179
61.7021,161
61.7163,154
61.7305,142
61.7447,156
61.7588,158
61.773,138
61.7872,168
61.8014,168
61.8155,144
61.8297,159
61.8439,139
61.8581,131
61.8723,140
61.8864,139
61.9006,132
61.9148,118
61.929,129
61.9431,150
61.9573,158
61.9715,122
61.9857,130
61.9998,116
62.014,132
62.0282,135
62.0424,136
62.0565,131
62.0707,137
62.0849,109
62.0991,143
62.1132,134
62.1274,124
62.1416,128
62.1558,131
62.1699,134
62.1841,131
62.1983,115
62.2125,126
62.2266,135
62.2408,119
62.255,131
62.2692,139
62.2833,133
62.2975,130
62.3117,112
62.3259,121
62.34,118
62.3542,143
62.3684,135
62.3826,153
62.3967,118
62.4109,121
62.4251,130
62.4393,138
62.4534,128
62.4676,111
62.4818,147
62.496,131
62.5101,140
62.5243,129
62.5385,147
62.5527,143
62.5668,146
62.581,131
62.5952,148
62.6094,146
62.6235,133
62.6377,155
62.6519,143
62.6661,140
62.6802,146
62.6944,158
62.7086,164
62.7228,171
62.7369,162
62.7511,175
62.7653,154
62.7795,157
62.7936,171
62.8078,179
62.822,174
62.8362,176
62.8503,174
62.8645,185
62.8787,147
62.8929,178
62.907,154
62.9212,179
62.9354,186
62.9496,178
62.9637,181
62.9779,166
62.9921,187
63.0063,192
63.0204,143
63.0346,158
63.0488,141
63.063,180
63.0771,169
63.0913,143
63.1055,157
63.1197,160
63.1338,169
63.148,160
63.1622,189
63.1764,154
63.1905,147
63.2047,145
63.2189,151
63.2331,178
63.2472,156
63.2614,156
63.2756,149
63.2898,144
63.3039,157
63.3181,153
63.3323,152
63.3465,133
63.3606,137
63.3748,145
63.389,148
63.4032,148
63.4173,142
63.4315,164
63.4457,144
63.4599,161
63.474,141
63.4882,149
63.5024,129
63.5166,175
63.5307,145
63.5449,158
63.5591,156
63.5733,155
63.5874,133
63.6016,156
63.6158,171
63.63,144
63.6441,145
63.6583,172
63.6725,163
63.6867,140
63.7008,174
63.715,140
63.7292,172
63.7434,154
63.7575,145
63.7717,157
63.7859,171
63.8001,161
63.8142,145
63.8284,180
63.8426,178
63.8568,168
63.8709,188
63.8851,196
63.8993,184
63.9135,186
63.9276,182
63.9418,174
63.956,182
63.9702,200
63.9843,195
63.9985,172
64.0127,178
64.0269,190
64.041,191
64.0552,160
64.0694,177
64.0836,194
64.0977,178
64.1119,187
64.1261,194
64.1403,185
64.1544,183
64.1686,177
64.1828,167
64.197,172
64.2111,174
64.2253,164
64.2395,173
64.2537,147
64.2678,173
64.282,155
64.2962,166
64.3104,147
64.3245,143
64.3387,174
64.3529,150
64.3671,145
64.3812,149
64.3954,159
64.4096,144
64.4238,154
64.4379,161
64.4521,146
64.4663,132
64.4805,150
64.4946,134
64.5088,149
64.523,151
64.5372,140
64.5513,148
64.5655,152
64.5797,135
64.5939,125
64.608,163
64.6222,154
64.6364,140
64.6506,153
64.6647,166
64.6789,150
64.6931,150
64.7073,150
64.7214,189
64.7356,154
64.7498,164
64.764,165
64.7781,172
64.7923,154
64.8065,162
64.8207,161
64.8348,177
64.849,160
64.8632,186
64.8774,177
64.8915,170
64.9057,180
64.9199,159
64.9341,173
64.9482,141
64.9624,171
64.9766,170
64.9908,150
65.0049,158
65.0191,157
65.0333,176
65.0475,163
65.0616,147
65.0758,155
65.09,157
65.1042,147
65.1183,161
65.1325,165
65.1467,159
65.1609,153
65.175,126
65.1892,171
65.2034,142
65.2176,147
65.2317,155
65.2459,138
65.2601,148
65.2743,147
65.2884,162
65.3026,145
65.3168,137
65.331,129
65.3451,121
65.3593,155
65.3735,142
65.3877,136
65.4018,150
65.416,126
65.4302,133
65.4444,133
65.4585,140
65.4727,122
65.4869,138
65.5011,118
65.5152,132
65.5294,135
65.5436,127
65.5578,136
65.5719,114
65.5861,131
65.6003,110
65.6145,160
65.6286,108
65.6428,107
65.657,114
65.6712,122
65.6854,123
65.6995,127
65.7137,114
65.7279,110
65.7421,116
65.7562,128
65.7704,119
65.7846,108
65.7988,131
65.8129,125
65.8271,123
65.8413,112
65.8555,140
65.8696,139
65.8838,132
65.898,120
65.9122,106
65.9263,116
65.9405,101
65.9547,118
65.9689,119
65.983,116
65.9972,142
66.0114,114
66.0256,111
66.0397,108
66.0539,137
66.0681,112
66.0823,122
66.0964,112
66.1106,125
66.1248,122
66.139,137
66.1531,130
66.1673,117
66.1815,124
66.1957,132
66.2098,138
66.224,139
66.2382,130
66.2524,116
66.2665,134
66.2807,117
66.2949,130
66.3091,120
66.3232,141
66.3374,132
66.3516,128
66.3658,127
66.3799,122
66.3941,114
66.4083,124
66.4225,124
66.4366,133
66.4508,135
66.465,112
66.4792,127
66.4933,107
66.5075,101
66.5217,122
66.5359,112
66.55,150
66.5642,118
66.5784,125
66.5926,110
66.6067,96
66.6209,120
66.6351,118
66.6493,123
66.6634,127
66.6776,123
66.6918,137
66.706,103
66.7201,109
66.7343,119
66.7485,113
66.7627,135
66.7768,123
66.791,116
66.8052,110
66.8194,90
66.8335,106
66.8477,109
66.8619,108
66.8761,116
66.8902,105
66.9044,108
66.9186,96
66.9328,122
66.9469,115
66.9611,99
66.9753,81
66.9895,97
67.0036,114
67.0178,90
67.032,100
67.0462,106
67.0603,120
67.0745,108
67.0887,118
67.1029,109
67.117,129
67.1312,91
67.1454,124
67.1596,114
67.1737,118
67.1879,118
67.2021,97
67.2163,119
67.2304,117
67.2446,124
67.2588,121
67.273,119
67.2871,106
67.3013,103
67.3155,97
67.3297,103
67.3438,99
67.358,128
67.3722,118
67.3864,119
67.4005,106
67.4147,105
67.4289,114
67.4431,118
67.4572,100
67.4714,112
67.4856,102
67.4998,128
67.5139,112
67.5281,108
67.5423,119
67.5565,111
67.5706,103
67.5848,121
67.599,95
67.6132,110
67.6273,120
67.6415,107
67.6557,110
67.6699,104
67.684,101
67.6982,125
67.7124,100
67.7266,108
67.7407,101
67.7549,99
67.7691,118
67.7833,98
67.7974,94
67.8116,106
67.8258,96
67.84,108
67.8541,117
67.8683,116
67.8825,108
67.8967,123
67.9108,121
67.925,99
67.9392,106
67.9534,115
67.9675,111
67.9817,130
67.9959,105
68.0101,114
68.0242,101
68.0384,107
68.0526,113
68.0668,104
68.0809,110
68.0951,107
68.1093,99
68.1235,98
68.1376,94
68.1518,103
68.166,120
68.1802,94
68.1943,89
68.2085,96
68.2227,132
68.2369,107
68.251,124
68.2652,99
68.2794,120
68.2936,109
68.3077,98
68.3219,107
68.3361,112
68.3503,112
68.3644,108
68.3786,106
68.3928,90
68.407,109
68.4211,98
68.4353,115
68.4495,102
68.4637,118
68.4778,115
68.492,99
68.5062,98
68.5204,113
68.5345,109
68.5487,96
68.5629,96
68.5771,91
68.5912,104
68.6054,112
68.6196,109
68.6338,119
68.6479,114
68.6621,110
68.6763,100
68.6905,120
68.7046,83
68.7188,115
68.733,118
68.7472,125
68.7613,124
68.7755,118
68.7897,115
68.8039,119
68.818,122
68.8322,115
68.8464,114
68.8606,117
68.8747,122
68.8889,108
68.9031,114
68.9173,111
68.9314,116
68.9456,109
68.9598,96
68.974,117
68.9881,118
69.0023,111
69.0165,111
69.0307,106
69.0448,100
69.059,110
69.0732,110
69.0874,103
69.1015,96
69.1157,137
69.1299,113
69.1441,100
69.1582,122
69.1724,119
69.1866,106
69.2008,108
69.2149,122
69.2291,97
69.2433,114
69.2575,133
69.2716,103
69.2858,116
69.3,109
69.3142,122
69.3283,123
69.3425,118
69.3567,101
69.3709,136
69.385,125
69.3992,104
69.4134,106
69.4276,131
69.4417,124
69.4559,104
69.4701,118
69.4843,123
69.4985,121
69.5126,116
69.5268,133
69.541,137
69.5552,109
69.5693,119
69.5835,105
69.5977,127
69.6119,124
69.626,131
69.6402,102
69.6544,127
69.6686,125
69.6827,111
69.6969,103
69.7111,124
69.7253,119
69.7394,115
69.7536,103
69.7678,115
69.782,116
69.7961,128
69.8103,123
69.8245,119
69.8387,119
69.8528,128
69.867,108
69.8812,123
69.8954,105
69.9095,126
69.9237,111
69.9379,117
69.9521,136
69.9662,114
69.9804,111
69.9946,105
